34.541 34.541 34.541 34.541 34.541 34.541 34.541 34.541 39.541 36.541 34.541 33.541 31.541 32.541 31.541 28.541 27.541 26.541 29.541 32.541 28.541 27.541 25.541 27.541 32.541 36.541 32.541 25.541 22.541 16.541 18.541 14.541 13.541 11.541 8.541 8.541 8.541 10.541 12.541 10.541 8.541 5.541 5.541 5.541 5.541 6.541 4.541 2.541 6.541 8.541 8.541 7.541 6.541 2.541 5.541 3.541 7.541 5.541 3.541 0.541 -0.459 -3.459 -8.459 -13.459 -13.459 -17.459 -27.459 -33.459 -33.459 -21.459 -2.459 19.541 49.541 87.541 138.541 187.541 219.541 231.541 216.541 167.541 97.541 30.541 -9.459 -23.459 -21.459 -10.459 -2.459 -1.459 -3.459 -5.459 -2.459 -1.459 0.541 1.541 -0.459 -3.459 -4.459 -1.459 -5.459 -3.459 -2.459 -3.459 -2.459 -1.459 -2.459 -2.459 -5.459 -7.459 -3.459 -1.459 2.541 -0.459 -0.459 -2.459 -4.459 -3.459 -4.459 -5.459 -7.459 -7.459 -4.459 -2.459 -2.459 -2.459 -4.459 -6.459 -1.459 -1.459 -2.459 -2.459 -3.459 -3.459 -4.459 -2.459 -4.459 -6.459 -7.459 -6.459 -5.459 -2.459 -0.459 -3.459 -2.459 -5.459 -2.459 -3.459 -3.459 -5.459 -5.459 -7.459 -4.459 -4.459 -3.459 -2.459 -6.459 -6.459 -5.459 -3.459 -3.459 -3.459 -6.459 -7.459 -7.459 -5.459 -5.459 -3.459 -6.459 -8.459 -8.459 -8.459 -9.459 -8.459 -10.459 -13.459 -10.459 -8.459 -7.459 -8.459 -11.459 -11.459 -9.459 -9.459 -8.459 -8.459 -9.459 -10.459 -7.459 -2.459 -1.459 -1.459 -3.459 -4.459 0.541 3.541 3.541 5.541 4.541 5.541 6.541 8.541 12.541 13.541 13.541 10.541 12.541 14.541 17.541 14.541 14.541 12.541 12.541 15.541 13.541 12.541 14.541 12.541 13.541 13.541 10.541 11.541 11.541 10.541 9.541 10.541 11.541 8.541 7.541 5.541 8.541 9.541 11.541 7.541 7.541 6.541 8.541 8.541 10.541 9.541 6.541 5.541 7.541 8.541 6.541 7.541 3.541 3.541 2.541 4.541 3.541 1.541 1.541 2.541 4.541 6.541 6.541 5.541 4.541 1.541 5.541 4.541 3.541 2.541 1.541 -1.459 1.541 3.541 5.541 1.541 -1.459 -2.459 0.541 3.541 2.541 1.541 -0.459 -2.459 -1.459 0.541 1.541 2.541 2.541 1.541 3.541 2.541 5.541 3.541 3.541 2.541 2.541 5.541 7.541 4.541 2.541 0.541 2.541 4.541 5.541 7.541 9.541 8.541 8.541 9.541 13.541 13.541 12.541 18.541 19.541 22.541 23.541 22.541 20.541 17.541 19.541 18.541 18.541 18.541 17.541 16.541 15.541 16.541 19.541 21.541 22.541 14.541 6.541 6.541 3.541 1.541 -2.459 -2.459 -1.459 0.541 -0.459 0.541 -1.459 -4.459 -5.459 -4.459 -4.459 -6.459 -5.459 -7.459 -2.459 -3.459 -2.459 -0.459 -5.459 -7.459 -4.459 -2.459 -1.459 -2.459 -6.459 -9.459 -8.459 -12.459 -21.459 -25.459 -31.459 -38.459 -43.459 -37.459 -19.459 3.541 31.541 60.541 110.541 161.541 207.541 238.541 251.541 244.541 214.541 161.541 96.541 41.541 9.541 -14.459 -26.459 -31.459 -27.459 -21.459 -14.459 -14.459 -13.459 -14.459 -12.459 -12.459 -12.459 -15.459 -13.459 -13.459 -13.459 -11.459 -15.459 -18.459 -18.459 -16.459 -15.459 -14.459 -17.459 -15.459 -13.459 -11.459 -14.459 -14.459 -17.459 -18.459 -18.459 -14.459 -14.459 -15.459 -17.459 -19.459 -16.459 -18.459 -17.459 -18.459 -19.459 -18.459 -16.459 -16.459 -15.459 -14.459 -17.459 -18.459 -14.459 -14.459 -13.459 -13.459 -18.459 -17.459 -15.459 -14.459 -11.459 -14.459 -15.459 -18.459 -16.459 -14.459 -14.459 -13.459 -17.459 -19.459 -19.459 -16.459 -15.459 -17.459 -19.459 -20.459 -20.459 -18.459 -19.459 -21.459 -20.459 -23.459 -22.459 -22.459 -20.459 -22.459 -26.459 -27.459 -26.459 -23.459 -25.459 -26.459 -27.459 -30.459 -28.459 -27.459 -26.459 -27.459 -30.459 -31.459 -28.459 -26.459 -25.459 -24.459 -23.459 -24.459 -18.459 -15.459 -10.459 -9.459 -8.459 -9.459 -4.459 -1.459 0.541 -0.459 -2.459 -2.459 -0.459 1.541 3.541 3.541 -0.459 -0.459 0.541 2.541 2.541 4.541 -0.459 -2.459 2.541 1.541 3.541 3.541 -0.459 -1.459 1.541 2.541 0.541 2.541 0.541 0.541 1.541 4.541 5.541 2.541 1.541 -0.459 0.541 3.541 0.541 0.541 0.541 -2.459 0.541 -0.459 0.541 -1.459 -3.459 -4.459 -3.459 -3.459 -2.459 -1.459 -5.459 -6.459 -5.459 -3.459 -2.459 -2.459 -5.459 -5.459 -5.459 -0.459 -2.459 -3.459 -4.459 -7.459 -3.459 -2.459 -2.459 -3.459 -7.459 -8.459 -7.459 -6.459 -4.459 -5.459 -5.459 -5.459 -5.459 -2.459 -2.459 -3.459 -5.459 -6.459 -6.459 -4.459 -2.459 -5.459 -5.459 -7.459 -6.459 -4.459 -2.459 -4.459 -4.459 -4.459 -2.459 -3.459 -2.459 -3.459 -5.459 -5.459 -4.459 -2.459 0.541 4.541 3.541 4.541 6.541 8.541 10.541 10.541 10.541 12.541 13.541 15.541 18.541 20.541 15.541 14.541 15.541 14.541 16.541 14.541 13.541 8.541 8.541 10.541 13.541 18.541 19.541 17.541 10.541 9.541 7.541 6.541 2.541 -0.459 -4.459 -2.459 -3.459 -3.459 -7.459 -10.459 -8.459 -5.459 -6.459 -7.459 -9.459 -11.459 -12.459 -10.459 -9.459 -9.459 -12.459 -13.459 -12.459 -11.459 -7.459 -10.459 -14.459 -17.459 -18.459 -23.459 -29.459 -34.459 -40.459 -47.459 -50.459 -41.459 -17.459 13.541 45.541 87.541 145.541 201.541 240.541 255.541 233.541 167.541 73.541 -0.459 -36.459 -37.459 -25.459 -19.459 -15.459 -14.459 -15.459 -14.459 -15.459 -17.459 -15.459 -17.459 -14.459 -15.459 -15.459 -18.459 -17.459 -16.459 -16.459 -19.459 -17.459 -20.459 -19.459 -17.459 -17.459 -20.459 -20.459 -23.459 -20.459 -18.459 -18.459 -17.459 -21.459 -22.459 -20.459 -19.459 -18.459 -18.459 -21.459 -20.459 -16.459 -15.459 -16.459 -16.459 -15.459 -19.459 -17.459 -14.459 -16.459 -16.459 -19.459 -21.459 -21.459 -19.459 -19.459 -18.459 -21.459 -21.459 -20.459 -19.459 -16.459 -16.459 -18.459 -21.459 -18.459 -17.459 -15.459 -16.459 -16.459 -17.459 -13.459 -16.459 -14.459 -14.459 -16.459 -19.459 -17.459 -17.459 -18.459 -19.459 -20.459 -20.459 -21.459 -19.459 -19.459 -18.459 -23.459 -22.459 -23.459 -20.459 -20.459 -20.459 -20.459 -21.459 -21.459 -19.459 -15.459 -15.459 -14.459 -11.459 -8.459 -4.459 -3.459 -2.459 -3.459 -3.459 -1.459 -0.459 2.541 2.541 0.541 1.541 2.541 3.541 3.541 3.541 1.541 1.541 1.541 0.541 3.541 2.541 0.541 -0.459 -1.459 1.541 2.541 2.541 -0.459 -1.459 2.541 1.541 4.541 1.541 -1.459 -2.459 -0.459 -0.459 -0.459 -1.459 -6.459 -6.459 -4.459 -3.459 -2.459 -3.459 -4.459 -8.459 -6.459 -6.459 -7.459 -8.459 -7.459 -9.459 -7.459 -6.459 -4.459 -7.459 -6.459 -9.459 -9.459 -6.459 -7.459 -6.459 -10.459 -12.459 -10.459 -8.459 -9.459 -8.459 -9.459 -12.459 -10.459 -9.459 -6.459 -6.459 -6.459 -10.459 -9.459 -5.459 -5.459 -4.459 -7.459 -9.459 -8.459 -7.459 -7.459 -7.459 -11.459 -13.459 -7.459 -8.459 -7.459 -8.459 -8.459 -10.459 -8.459 -5.459 -7.459 -5.459 -5.459 -5.459 -4.459 1.541 2.541 2.541 1.541 2.541 5.541 6.541 8.541 7.541 7.541 8.541 10.541 12.541 14.541 11.541 10.541 8.541 7.541 10.541 9.541 8.541 7.541 8.541 7.541 8.541 10.541 12.541 15.541 11.541 7.541 1.541 1.541 -5.459 -8.459 -12.459 -13.459 -12.459 -10.459 -11.459 -13.459 -14.459 -15.459 -13.459 -13.459 -13.459 -15.459 -17.459 -16.459 -11.459 -11.459 -14.459 -15.459 -19.459 -17.459 -16.459 -14.459 -17.459 -21.459 -28.459 -31.459 -37.459 -38.459 -41.459 -44.459 -56.459 -65.459 -62.459 -51.459 -35.459 -13.459 9.541 40.541 81.541 137.541 190.541 225.541 235.541 217.541 158.541 76.541 2.541 -36.459 -40.459 -31.459 -18.459 -14.459 -14.459 -16.459 -18.459 -17.459 -13.459 -14.459 -15.459 -17.459 -18.459 -17.459 -16.459 -14.459 -15.459 -18.459 -19.459 -18.459 -15.459 -17.459 -18.459 -17.459 -17.459 -18.459 -14.459 -13.459 -14.459 -15.459 -16.459 -16.459 -16.459 -15.459 -15.459 -17.459 -17.459 -16.459 -15.459 -13.459 -11.459 -13.459 -15.459 -14.459 -13.459 -11.459 -13.459 -15.459 -15.459 -13.459 -11.459 -11.459 -13.459 -15.459 -14.459 -14.459 -9.459 -11.459 -13.459 -15.459 -12.459 -13.459 -11.459 -12.459 -14.459 -12.459 -11.459 -11.459 -11.459 -11.459 -12.459 -14.459 -14.459 -9.459 -10.459 -11.459 -13.459 -14.459 -14.459 -11.459 -9.459 -13.459 -12.459 -14.459 -11.459 -11.459 -9.459 -10.459 -13.459 -15.459 -13.459 -13.459 -10.459 -9.459 -10.459 -11.459 -6.459 -3.459 -0.459 0.541 -0.459 -1.459 0.541 4.541 6.541 3.541 4.541 6.541 6.541 7.541 9.541 7.541 5.541 4.541 4.541 5.541 7.541 5.541 4.541 1.541 4.541 6.541 7.541 8.541 4.541 2.541 3.541 4.541 4.541 6.541 3.541 2.541 3.541 4.541 3.541 2.541 0.541 1.541 0.541 4.541 3.541 1.541 -2.459 -4.459 -2.459 -0.459 -0.459 0.541 -1.459 -3.459 -2.459 0.541 -0.459 -0.459 -2.459 -5.459 -4.459 -3.459 -2.459 -3.459 -5.459 -6.459 -5.459 -4.459 -3.459 -3.459 -2.459 -3.459 -4.459 -3.459 -0.459 -4.459 -4.459 -6.459 -9.459 -8.459 -5.459 -5.459 -6.459 -6.459 -6.459 -4.459 -4.459 -5.459 -5.459 -12.459 -8.459 -8.459 -5.459 -5.459 -6.459 -7.459 -5.459 -2.459 -2.459 -3.459 -3.459 -4.459 -2.459 -0.459 5.541 5.541 3.541 2.541 6.541 7.541 8.541 7.541 8.541 9.541 10.541 13.541 17.541 14.541 15.541 12.541 12.541 14.541 16.541 12.541 10.541 11.541 12.541 9.541 10.541 7.541 12.541 13.541 14.541 10.541 7.541 3.541 0.541 -1.459 -3.459 -5.459 -2.459 -3.459 -5.459 -8.459 -6.459 -4.459 -3.459 -5.459 -8.459 -9.459 -11.459 -10.459 -9.459 -9.459 -12.459 -11.459 -11.459 -9.459 -10.459 -8.459 -10.459 -12.459 -9.459 -8.459 -6.459 -7.459 -10.459 -13.459 -15.459 -22.459 -25.459 -33.459 -39.459 -49.459 -47.459 -31.459 -7.459 19.541 52.541 100.541 158.541 204.541 227.541 219.541 170.541 92.541 23.541 -20.459 -36.459 -32.459 -26.459 -18.459 -16.459 -14.459 -14.459 -16.459 -17.459 -21.459 -21.459 -17.459 -15.459 -17.459 -17.459 -19.459 -17.459 -13.459 -14.459 -15.459 -15.459 -15.459 -15.459 -13.459 -14.459 -14.459 -16.459 -21.459 -18.459 -16.459 -15.459 -16.459 -17.459 -21.459 -19.459 -17.459 -17.459 -17.459 -18.459 -19.459 -17.459 -20.459 -17.459 -18.459 -18.459 -20.459 -19.459 -17.459 -15.459 -15.459 -15.459 -16.459 -15.459 -15.459 -17.459 -17.459 -20.459 -23.459 -19.459 -17.459 -15.459 -14.459 -19.459 -17.459 -17.459 -16.459 -15.459 -15.459 -17.459 -20.459 -19.459 -16.459 -15.459 -16.459 -17.459 -21.459 -21.459 -21.459 -20.459 -21.459 -26.459 -25.459 -26.459 -23.459 -25.459 -30.459 -27.459 -28.459 -24.459 -23.459 -21.459 -22.459 -25.459 -26.459 -25.459 -22.459 -20.459 -18.459 -21.459 -20.459 -17.459 -12.459 -10.459 -9.459 -9.459 -9.459 -5.459 -2.459 0.541 2.541 2.541 -0.459 1.541 1.541 2.541 1.541 0.541 -0.459 0.541 2.541 2.541 4.541 1.541 -0.459 1.541 0.541 4.541 3.541 2.541 3.541 6.541 7.541 5.541 4.541 2.541 -1.459 2.541 3.541 3.541 0.541 -1.459 -3.459 -1.459 0.541 -0.459 -3.459 -2.459 -4.459 -1.459 -1.459 -0.459 0.541 -3.459 -3.459 -5.459 -3.459 -1.459 -2.459 0.541 -3.459 -2.459 -2.459 -2.459 -2.459 -3.459 -4.459 -2.459 -0.459 0.541 -1.459 -3.459 -7.459 -5.459 -4.459 -3.459 -0.459 -1.459 -6.459 -2.459 0.541 0.541 -2.459 -2.459 -3.459 -3.459 -2.459 -2.459 -2.459 -4.459 -4.459 -4.459 -1.459 -1.459 -1.459 -5.459 -6.459 -4.459 -2.459 -0.459 1.541 2.541 2.541 8.541 9.541 12.541 11.541 10.541 11.541 13.541 16.541 16.541 19.541 16.541 16.541 19.541 17.541 18.541 16.541 14.541 12.541 15.541 17.541 17.541 13.541 12.541 13.541 17.541 22.541 24.541 21.541 17.541 9.541 9.541 6.541 6.541 1.541 -2.459 -4.459 -4.459 -5.459 -6.459 -6.459 -4.459 -7.459 -5.459 -4.459 -4.459 -5.459 -7.459 -10.459 -7.459 -10.459 -5.459 -4.459 -8.459 -12.459 -8.459 -5.459 -6.459 -6.459 -7.459 -12.459 -14.459 -15.459 -21.459 -27.459 -31.459 -38.459 -45.459 -44.459 -35.459 -17.459 4.541 31.541 71.541 126.541 182.541 223.541 240.541 222.541 167.541 89.541 20.541 -21.459 -36.459 -34.459 -26.459 -16.459 -14.459 -15.459 -15.459 -16.459 -14.459 -12.459 -13.459 -13.459 -16.459 -18.459 -18.459 -14.459 -14.459 -17.459 -17.459 -19.459 -18.459 -15.459 -15.459 -16.459 -19.459 -19.459 -19.459 -16.459 -14.459 -14.459 -18.459 -19.459 -17.459 -15.459 -15.459 -15.459 -17.459 -18.459 -18.459 -16.459 -14.459 -15.459 -18.459 -21.459 -19.459 -17.459 -18.459 -17.459 -19.459 -21.459 -21.459 -18.459 -15.459 -14.459 -16.459 -18.459 -18.459 -16.459 -14.459 -18.459 -20.459 -20.459 -19.459 -19.459 -17.459 -20.459 -19.459 -21.459 -18.459 -16.459 -17.459 -16.459 -16.459 -18.459 -16.459 -15.459 -15.459 -17.459 -18.459 -21.459 -21.459 -18.459 -18.459 -20.459 -22.459 -25.459 -24.459 -23.459 -22.459 -22.459 -26.459 -25.459 -25.459 -23.459 -23.459 -25.459 -24.459 -26.459 -22.459 -22.459 -19.459 -16.459 -16.459 -13.459 -9.459 -3.459 -2.459 -1.459 -2.459 -2.459 1.541 4.541 6.541 5.541 5.541 1.541 4.541 6.541 7.541 3.541 5.541 4.541 5.541 7.541 8.541 8.541 5.541 5.541 6.541 9.541 9.541 9.541 8.541 5.541 6.541 8.541 8.541 5.541 4.541 2.541 4.541 4.541 6.541 5.541 3.541 2.541 1.541 4.541 3.541 2.541 1.541 -1.459 -1.459 0.541 1.541 0.541 0.541 -1.459 -0.459 1.541 -0.459 0.541 -2.459 -2.459 -0.459 1.541 1.541 1.541 -2.459 -3.459 -2.459 -0.459 -1.459 -1.459 -2.459 -3.459 -2.459 -1.459 -1.459 -0.459 -1.459 -2.459 -1.459 0.541 2.541 -1.459 0.541 -3.459 -2.459 1.541 -0.459 -2.459 -2.459 -3.459 -2.459 -2.459 -0.459 -0.459 -2.459 -2.459 -1.459 0.541 0.541 0.541 -2.459 -2.459 -0.459 0.541 2.541 2.541 4.541 0.541 3.541 8.541 12.541 12.541 11.541 10.541 12.541 16.541 17.541 18.541 19.541 19.541 20.541 23.541 22.541 22.541 18.541 16.541 15.541 17.541 20.541 15.541 15.541 13.541 16.541 21.541 23.541 19.541 12.541 8.541 6.541 3.541 2.541 -0.459 -2.459 -1.459 -0.459 -2.459 -2.459 -3.459 -4.459 -5.459 -4.459 -3.459 -0.459 -1.459 -3.459 -5.459 -5.459 -5.459 -3.459 -4.459 -5.459 -7.459 -4.459 -4.459 -4.459 -4.459 -5.459 -7.459 -9.459 -10.459 -17.459 -25.459 -32.459 -35.459 -40.459 -43.459 -37.459 -19.459 7.541 36.541 76.541 123.541 179.541 225.541 252.541 247.541 218.541 152.541 67.541 4.541 -25.459 -30.459 -21.459 -12.459 -8.459 -8.459 -10.459 -12.459 -12.459 -11.459 -10.459 -9.459 -10.459 -13.459 -13.459 -11.459 -10.459 -10.459 -13.459 -15.459 -13.459 -13.459 -14.459 -13.459 -15.459 -18.459 -16.459 -15.459 -12.459 -15.459 -15.459 -16.459 -16.459 -15.459 -14.459 -14.459 -15.459 -17.459 -14.459 -13.459 -11.459 -11.459 -12.459 -14.459 -13.459 -10.459 -10.459 -10.459 -11.459 -13.459 -10.459 -14.459 -11.459 -10.459 -12.459 -14.459 -14.459 -13.459 -11.459 -11.459 -13.459 -15.459 -14.459 -13.459 -11.459 -12.459 -13.459 -14.459 -12.459 -12.459 -10.459 -10.459 -9.459 -14.459 -9.459 -9.459 -8.459 -11.459 -12.459 -16.459 -14.459 -11.459 -11.459 -10.459 -13.459 -14.459 -14.459 -14.459 -14.459 -11.459 -13.459 -15.459 -12.459 -10.459 -11.459 -11.459 -14.459 -17.459 -11.459 -10.459 -8.459 -11.459 -13.459 -12.459 -10.459 -8.459 -5.459 -5.459 -2.459 -2.459 0.541 1.541 4.541 6.541 6.541 4.541 7.541 9.541 7.541 7.541 7.541 5.541 5.541 7.541 8.541 7.541 6.541 5.541 5.541 7.541 7.541 6.541 5.541 3.541 4.541 6.541 7.541 6.541 6.541 4.541 6.541 7.541 8.541 7.541 5.541 1.541 2.541 6.541 9.541 9.541 8.541 6.541 6.541 9.541 10.541 10.541 10.541 7.541 10.541 14.541 16.541 16.541 13.541 13.541 14.541 20.541 19.541 14.541 12.541 17.541 22.541 21.541 19.541 17.541 15.541 15.541 14.541 13.541 9.541 6.541 0.541 -0.459 -0.459 1.541 -2.459 